num crossings	time (s)	maj axis (mm)	min axis (mm)	theta (rad )	slope (V/s)
45	226.065480	74.973503	-12.750390	1.536922	69.099274
47	228.137225	75.532922	-12.846856	1.537181	62.999222
49	230.202404	75.717536	-12.868147	1.524807	64.121891
53	234.333898	75.084393	-12.803166	1.517385	72.697442
55	236.405247	74.940040	-12.855791	1.517416	68.629817
57	238.477938	74.884554	-12.917302	1.516258	68.856240
59	240.548616	74.827956	-12.917694	1.515374	69.676964
61	242.617094	74.880296	-12.955870	1.514845	69.017349
63	244.686782	74.729986	-12.973672	1.515409	66.517109
65	246.754896	74.517972	-12.961095	1.516091	68.773184
67	248.825707	74.107306	-13.049970	1.514342	65.927295
69	250.899941	73.797761	-13.095325	1.506824	66.358052
71	252.977127	73.839404	-13.145965	1.498109	64.479335
73	255.049166	74.129590	-13.144925	1.494095	64.451880
77	259.176331	74.132991	-13.109126	1.507723	67.712528
79	261.245619	73.434271	-13.239564	1.505756	67.490725
81	263.323209	73.115017	-13.290536	1.493152	61.784269
83	265.399239	73.371229	-13.306039	1.484862	64.941992
85	267.468374	73.609822	-13.262517	1.485238	67.608193
89	271.596823	73.498418	-13.356121	1.493489	67.317802
91	273.664603	73.102751	-13.406638	1.492833	65.654575
93	275.735990	72.789570	-13.430983	1.488654	64.036424
95	277.808399	72.667384	-13.449003	1.483343	62.898673
97	279.881486	72.663143	-13.472581	1.479389	61.070689
101	284.023833	72.581824	-13.523060	1.474829	60.827020
103	286.094528	72.534804	-13.565961	1.473155	60.340292
105	288.163692	72.549252	-13.611875	1.470538	63.464561
109	292.298160	72.296892	-13.732678	1.464049	62.829599
111	294.366703	72.196084	-13.770429	1.461382	60.605124
113	296.436747	72.017023	-13.820561	1.459153	64.607851
115	298.509208	71.797016	-13.841655	1.457584	63.656321
119	302.658784	71.299246	-13.884962	1.460073	60.898823
121	304.731235	71.392615	-13.941734	1.462050	63.573891
123	306.799333	71.677547	-13.992068	1.458060	61.588476
127	310.930286	71.532060	-14.071347	1.443139	57.319407
129	312.997377	71.275945	-14.086317	1.440757	60.329425
131	315.067568	71.105924	-14.103883	1.439892	61.579429
135	319.211868	70.850308	-14.182123	1.437464	58.877937
137	321.283389	70.742484	-14.223538	1.435766	62.855501
139	323.354853	70.677676	-14.263148	1.433713	61.987882
143	327.495335	70.484986	-14.361615	1.428377	62.241491
145	329.564088	70.504363	-14.350581	1.427432	59.054148
147	331.632965	70.477580	-14.382748	1.426344	59.992468
151	335.768436	70.231303	-14.419607	1.426305	58.065690
153	337.837650	70.001575	-14.447578	1.425692	57.756778
155	339.909083	69.686135	-14.498044	1.422237	57.225576
159	344.058464	69.464929	-14.555504	1.410268	55.453134
161	346.132718	69.480404	-14.619825	1.406178	56.848263
163	348.203457	69.522159	-14.643692	1.404432	56.492028
167	352.338139	69.487216	-14.712880	1.403679	57.948617
169	354.405019	69.487459	-14.746383	1.402530	56.706672
171	356.472637	69.317951	-14.759892	1.402368	57.113061
175	360.609695	69.041106	-14.816951	1.399197	57.638980
177	362.678916	68.924952	-14.841044	1.397032	56.919794
179	364.748728	68.799925	-14.874881	1.394380	54.568089
181	366.818871	68.702603	-14.924604	1.391782	54.546709
183	368.889023	68.612736	-14.953677	1.389109	54.930333
185	370.959097	68.495379	-14.982098	1.386445	53.185537
189	375.099910	68.293140	-15.048272	1.380962	55.225331
191	377.170898	68.207449	-15.095699	1.377868	56.868498
193	379.242705	68.066156	-15.127688	1.375602	54.913924
197	383.387352	67.723626	-15.177329	1.371200	53.457620
199	385.460202	67.516018	-15.200951	1.370480	53.934270
201	387.533072	67.387244	-15.229273	1.371082	54.376822
205	391.673791	67.450441	-15.290668	1.368630	52.187961
207	393.741407	67.575091	-15.315553	1.363722	50.173960
209	395.807494	67.502041	-15.329439	1.357396	48.349179
213	399.940715	67.184784	-15.357329	1.350323	52.699057
215	402.010230	67.035752	-15.407966	1.349475	50.148839
217	404.079675	66.956415	-15.443973	1.348190	51.493606
221	408.220340	66.784380	-15.510428	1.345615	50.065710
223	410.289841	66.679804	-15.531264	1.344414	50.795219
225	412.359901	66.528873	-15.558496	1.342963	51.581918
229	416.502052	66.143100	-15.647683	1.337991	48.329772
231	418.575381	65.991522	-15.656242	1.334237	48.228651
233	420.649530	65.891453	-15.666070	1.329341	47.995930
237	424.796382	65.897498	-15.765002	1.321343	49.794783
239	426.866825	65.835303	-15.814764	1.319900	49.334971
241	428.935573	65.810612	-15.849488	1.318516	50.240327
245	433.071211	65.685062	-15.901288	1.316080	49.112940
247	435.139347	65.590413	-15.928891	1.313692	49.031180
249	437.208082	65.500224	-15.961579	1.312237	50.576467
253	441.347876	65.250867	-16.041290	1.307172	49.744078
255	443.417797	65.124966	-16.066071	1.304650	47.946627
257	445.488962	64.885926	-16.081725	1.302349	50.009461
261	449.632827	64.532464	-16.134596	1.300166	48.687930
263	451.705009	64.241354	-16.168451	1.298730	47.186279
265	453.776876	64.334151	-16.185438	1.299475	44.898098
269	457.914843	64.432028	-16.239999	1.294808	45.078792
271	459.982446	64.446698	-16.265974	1.289361	43.667235
273	462.048603	64.357585	-16.294146	1.284435	42.860926
277	466.182749	64.089540	-16.353056	1.278244	44.459708
279	468.251531	64.047756	-16.393481	1.275768	43.594464
281	470.320953	63.784025	-16.384808	1.274373	43.510750
285	474.460593	63.616791	-16.445654	1.272505	43.719882
287	476.530885	63.469559	-16.465670	1.271104	42.624713
289	478.602057	63.321079	-16.494071	1.269053	41.560673
293	482.746717	63.019350	-16.552705	1.262442	40.554020
295	484.820748	62.915771	-16.531329	1.258338	40.543220
297	486.894599	62.827342	-16.563229	1.254307	41.559622
301	491.038099	62.766417	-16.645154	1.248543	42.354921
303	493.107705	62.742558	-16.690530	1.246716	43.474997
305	495.175853	62.674487	-16.719881	1.245078	43.991634
309	499.312491	62.539334	-16.754161	1.241629	43.150935
311	501.381568	62.427668	-16.772081	1.239379	43.292255
313	503.451252	62.284730	-16.792411	1.237061	43.833791
317	507.592524	62.023782	-16.852443	1.232953	43.597882
319	509.663975	61.857010	-16.885476	1.231302	42.644088
321	511.735835	61.711542	-16.917319	1.230361	41.767944
325	515.878175	61.616869	-16.976834	1.229074	39.946724
327	517.947507	61.625097	-16.984096	1.226964	38.969424
329	520.015644	61.652910	-16.974350	1.222839	38.725816
333	524.149179	61.521433	-17.020548	1.214093	36.992226
335	526.215734	61.465896	-17.028357	1.210518	38.603642
337	528.283827	61.288512	-17.048820	1.208047	38.071885
341	532.422219	61.056888	-17.075241	1.204871	38.769642
343	534.491519	60.945006	-17.080901	1.203413	36.842062
345	536.562020	60.835495	-17.116680	1.201443	37.874369
