time (s)	det(V)
9743.627516	-0.642541	
9743.629515	-0.596188	
9743.631516	-0.545788	
9743.633516	-0.498034	
9743.637515	-0.450212	
9743.639514	-0.360091	
9743.641517	-0.310811	
9743.643514	-0.261996	
9743.645515	-0.216165	
9743.647516	-0.166669	
9743.649516	-0.118041	
9743.651515	-0.072174	
9743.653514	-0.021680	
9743.655515	0.026858	
9743.657516	0.072112	
9743.659514	0.120132	
9743.663516	0.166677	
9743.665515	0.261455	
9743.667516	0.309782	
9743.669514	0.357396	
9743.671515	0.403696	
9743.673515	0.446601	
9743.677516	0.495899	
9743.679516	0.590189	
9743.681515	0.640459	
9743.685515	0.689004	
9743.687517	0.792009	
9743.689515	0.841123	
9743.691515	0.891331	
9743.693516	0.943072	
9743.697514	0.990723	
9743.699515	1.087915	
9743.703515	1.135019	
9743.705515	1.228047	
9743.707515	1.267945	
9743.709515	1.311953	
9743.711514	1.352022	
9743.715514	1.389071	
9743.717515	1.456850	
9743.719516	1.490661	
9743.723515	1.523837	
9743.725516	1.574338	
9743.727515	1.593465	
9743.729516	1.606046	
9743.731514	1.612107	
9743.733515	1.612408	
9743.737515	1.612396	
9743.741516	1.612291	
9743.743516	1.609409	
9743.745515	1.593069	
9743.747516	1.576415	
9743.749515	1.554770	
9743.753514	1.527739	
9743.755516	1.464283	
9743.757515	1.431210	
9743.759515	1.398497	
9743.761515	1.363355	
9743.763515	1.324993	
9743.765516	1.286326	
9743.767515	1.245609	
9743.769516	1.211028	
9743.771515	1.170480	
9743.773515	1.124799	
9743.775515	1.081710	
9743.777514	1.039668	
9743.781516	0.996079	
9743.783515	0.913711	
9743.785515	0.872869	
9743.787515	0.835353	
9743.789515	0.794303	
9743.793516	0.756738	
9743.795516	0.682038	
9743.797516	0.648179	
9743.799517	0.615539	
9743.803515	0.555409	
9743.805515	0.525759	
9743.807516	0.496610	
9743.809515	0.469991	
9743.811514	0.443998	
9743.815516	0.418047	
9743.819515	0.376394	
9743.821516	0.337181	
9743.823514	0.316963	
9743.825515	0.298454	
9743.827516	0.280995	
9743.831514	0.262722	
9743.833516	0.230367	
9743.835515	0.215533	
9743.837516	0.204892	
9743.839516	0.190940	
9743.841516	0.179960	
9743.843515	0.169978	
9743.845516	0.156162	
9743.847515	0.147290	
9743.849515	0.137964	
9743.851516	0.126392	
9743.853515	0.118142	
9743.855514	0.109959	
9743.859516	0.102075	
9743.861516	0.088665	
9743.863515	0.081643	
9743.865515	0.076103	
9743.867515	0.069178	
9743.871514	0.064317	
9743.873515	0.052731	
9743.875515	0.048232	
9743.879515	0.044415	
9743.881515	0.037232	
9743.883515	0.033598	
9743.885515	0.029124	
9743.887515	0.028659	
9743.889516	0.024229	
9743.893516	0.020584	
9743.897515	0.013002	
9743.899515	0.012125	
9743.901515	0.009497	
9743.903517	0.009222	
9743.905515	0.006486	
9743.909514	0.004844	
9743.911517	0.000419	
9743.913515	-0.001545	
9743.915514	-0.002473	
9743.917515	-0.002638	
9743.919516	-0.003302	
9743.921517	-0.002716	
9743.923516	-0.004639	
9743.925516	-0.004936	
9743.927516	-0.005074	
9743.929515	-0.009155	
9743.931516	-0.009237	
9743.933515	-0.010151	
9743.937515	-0.011838	
9743.939516	-0.009999	
9743.941515	-0.009386	
9743.943515	-0.009210	
9743.945516	-0.012137	
9743.949515	-0.010902	
9743.951516	-0.013866	
9743.953515	-0.012536	
9743.957516	-0.013536	
9743.959515	-0.011424	
9743.961515	-0.011522	
9743.963515	-0.012679	
9743.965515	-0.012120	
9743.967516	-0.012353	
9743.971515	-0.013469	
9743.975515	-0.013768	
9743.977515	-0.011198	
9743.979515	-0.012715	
9743.981515	-0.011848	
9743.983515	-0.012443	
9743.987514	-0.013045	
9743.989514	-0.013293	
9743.991517	-0.013074	
9743.993515	-0.011825	
9743.995519	-0.013305	
9743.997515	-0.011487	
9743.999516	-0.010803	
9744.001517	-0.012596	
9744.003515	-0.010947	
9744.005515	-0.010373	
9744.007515	-0.012297	
9744.009515	-0.011722	
9744.013515	-0.012639	
9744.015516	-0.012049	
9744.017517	-0.011055	
9744.019516	-0.011063	
9744.021515	-0.009435	
9744.023515	-0.010445	
9744.027514	-0.009296	
9744.029515	-0.012311	
9744.031515	-0.011217	
9744.035516	-0.011438	
9744.037515	-0.008044	
9744.039516	-0.008867	
9744.041515	-0.009139	
9744.043515	-0.007712	
9744.045515	-0.009894	
9744.049515	-0.009496	
9744.053515	-0.011171	
9744.055516	-0.007544	
9744.057516	-0.007657	
9744.059516	-0.007118	
9744.061516	-0.007637	
9744.065515	-0.008522	
9744.067515	-0.009442	
9744.069515	-0.009463	
9744.071515	-0.007871	
9744.073519	-0.007947	
9744.075515	-0.006126	
9744.077515	-0.005402	
9744.079515	-0.007608	
9744.081515	-0.005929	
9744.083517	-0.005780	
9744.085516	-0.008243	
9744.087515	-0.006436	
9744.091516	-0.007727	
9744.093516	-0.005381	
9744.095515	-0.006447	
9744.097516	-0.004786	
9744.099515	-0.004642	
9744.101515	-0.005767	
9744.105514	-0.004008	
9744.107515	-0.006213	
9744.109515	-0.005445	
9744.113516	-0.005322	
9744.115516	-0.003327	
9744.117515	-0.003877	
9744.119516	-0.003943	
9744.121516	-0.002548	
9744.123515	-0.002986	
9744.127515	-0.003635	
9744.131517	-0.005773	
9744.133515	-0.002660	
9744.135515	-0.002784	
9744.137516	-0.000857	
9744.139515	-0.001605	
9744.143514	-0.001579	
9744.145516	-0.004840	
9744.147516	-0.003054	
9744.149516	-0.002837	
9744.151517	-0.002806	
9744.153515	-0.000661	
9744.155515	-0.000575	
9744.157518	-0.000736	
9744.159515	-0.000031	
9744.161519	0.000147	
9744.163518	-0.002611	
9744.165515	-0.002184	
9744.167514	-0.002535	
9744.171516	-0.000502	
9744.173515	-0.000310	
9744.175515	0.001117	
9744.177515	0.001461	
9744.179515	-0.000680	
9744.183514	0.000945	
9744.185516	-0.002029	
9744.187515	0.000589	
9744.191516	-0.000720	
9744.193515	0.002476	
9744.195515	0.000941	
9744.197515	0.001490	
9744.199515	0.001689	
9744.201515	0.000992	
9744.205515	0.001613	
9744.209515	0.000773	
9744.211516	0.002560	
9744.213516	0.002049	
9744.215517	0.003046	
9744.217515	0.002361	
9744.221514	0.002352	
9744.223514	0.001423	
9744.225514	0.001776	
9744.227515	0.002402	
9744.229519	0.001731	
9744.231516	0.003884	
9744.233517	0.004053	
9744.235515	0.002627	
9744.237515	0.005358	
9744.239514	0.004641	
9744.241515	0.003165	
9744.243514	0.003662	
9744.247514	0.001814	
9744.249515	0.003616	
9744.251516	0.004219	
9744.253515	0.006166	
9744.255516	0.005781	
9744.257516	0.005654	
9744.261516	0.006366	
9744.263515	0.003974	
9744.265515	0.004475	
9744.269515	0.004350	
9744.271515	0.007476	
9744.273514	0.007339	
9744.275515	0.007444	
9744.277515	0.008407	
9744.279516	0.006557	
9744.283515	0.006445	
9744.287515	0.005203	
9744.289515	0.007672	
9744.291516	0.008613	
9744.293515	0.009541	
9744.295516	0.007067	
9744.299514	0.008893	
9744.301516	0.006571	
9744.303515	0.007413	
9744.305516	0.007842	
9744.307515	0.007941	
9744.309515	0.009257	
9744.311515	0.009748	
9744.313515	0.008633	
9744.315515	0.009963	
9744.317516	0.009869	
9744.319516	0.007847	
9744.321515	0.009421	
9744.323514	0.008023	
9744.327516	0.009081	
9744.329516	0.008909	
9744.331516	0.010609	
9744.333515	0.010404	
9744.335515	0.009185	
9744.339515	0.012027	
9744.341515	0.009534	
9744.343515	0.010623	
9744.347516	0.008423	
9744.349516	0.011390	
9744.351515	0.010702	
9744.353514	0.011829	
9744.355515	0.012073	
9744.357516	0.011979	
9744.361515	0.011335	
9744.365515	0.009121	
9744.367515	0.011655	
9744.369516	0.012010	
9744.371515	0.013342	
9744.373515	0.012191	
9744.377514	0.013202	
9744.379516	0.009339	
9744.381515	0.011137	
9744.383514	0.010416	
9744.385518	0.010594	
9744.387515	0.014014	
9744.389515	0.012607	
9744.391514	0.012313	
9744.393515	0.013749	
9744.395514	0.011834	
9744.397515	0.011265	
9744.399515	0.010441	
9744.401515	0.009682	
9744.405515	0.010574	
9744.407515	0.011407	
9744.409516	0.012346	
9744.411515	0.011502	
9744.413515	0.010237	
9744.417514	0.011110	
9744.419515	0.007641	
9744.421516	0.008575	
9744.425515	0.007111	
9744.427515	0.009051	
9744.429515	0.006221	
9744.431517	0.006641	
9744.433517	0.005731	
9744.435515	0.004371	
9744.439515	0.004487	
9744.443515	0.000479	
9744.445515	-0.001603	
9744.447516	-0.001486	
9744.449516	-0.003114	
9744.451516	-0.005973	
9744.455514	-0.006090	
9744.457516	-0.012136	
9744.459517	-0.013086	
9744.461515	-0.017288	
9744.463517	-0.018673	
9744.465515	-0.019685	
9744.467515	-0.022506	
9744.469515	-0.025576	
9744.471515	-0.027185	
9744.473515	-0.030828	
9744.475515	-0.035285	
9744.477514	-0.038077	
9744.481515	-0.044996	
9744.483515	-0.051770	
9744.485515	-0.056175	
9744.487515	-0.058421	
9744.489515	-0.065105	
9744.491515	-0.070634	
9744.495515	-0.075240	
9744.497517	-0.090604	
9744.499515	-0.098658	
9744.503515	-0.106548	
9744.505515	-0.120613	
9744.507515	-0.129742	
9744.509515	-0.139122	
9744.511515	-0.148821	
9744.515514	-0.160745	
9744.517515	-0.185518	
9744.521515	-0.198605	
9744.523516	-0.223001	
9744.525515	-0.237267	
9744.527515	-0.252165	
9744.529515	-0.271326	
9744.533515	-0.287171	
9744.535514	-0.328334	
9744.537515	-0.346635	
9744.539515	-0.369522	
9744.541516	-0.391249	
9744.543515	-0.412285	
9744.545515	-0.433461	
9744.547516	-0.459066	
9744.549515	-0.486202	
9744.551516	-0.515416	
9744.553515	-0.546001	
9744.555514	-0.577394	
9744.559516	-0.610155	
9744.561516	-0.676508	
9744.563515	-0.713137	
9744.565517	-0.749593	
9744.567515	-0.788035	
9744.569516	-0.828331	
9744.571517	-0.866524	
9744.573515	-0.909036	
9744.575515	-0.952616	
9744.577516	-0.993880	
9744.581516	-1.039096	
9744.583515	-1.124651	
9744.585515	-1.169093	
9744.587515	-1.210407	
9744.589515	-1.249966	
9744.591516	-1.290508	
9744.593515	-1.332284	
9744.595515	-1.376848	
9744.597516	-1.417278	
9744.599514	-1.455066	
9744.603515	-1.491989	
9744.605515	-1.555799	
9744.607515	-1.583783	
9744.609515	-1.608644	
9744.611516	-1.630356	
9744.613516	-1.646080	
9744.615515	-1.646597	
9744.617515	-1.646631	
9744.619515	-1.646672	
9744.621515	-1.646665	
9744.625516	-1.646683	
9744.627516	-1.646638	
9744.629515	-1.645918	
9744.631515	-1.629812	
9744.633516	-1.607700	
9744.635515	-1.583467	
9744.637516	-1.551848	
9744.639516	-1.521660	
9744.641515	-1.488431	
9744.645515	-1.450223	
9744.647515	-1.369883	
9744.649515	-1.324594	
9744.651515	-1.280375	
9744.653516	-1.238890	
9744.655515	-1.194304	
9744.657515	-1.146624	
9744.659515	-1.097189	
9744.661514	-1.049377	
9744.665514	-1.002441	
9744.667514	-0.901006	
9744.669515	-0.849829	
9744.671515	-0.796848	
9744.673515	-0.747004	
9744.675516	-0.696139	
9744.677515	-0.645059	
9744.679515	-0.598484	
9744.681515	-0.548561	
9744.683514	-0.498906	
9744.687516	-0.451209	
9744.689515	-0.358701	
9744.691515	-0.309324	
9744.693515	-0.260387	
9744.695515	-0.215484	
9744.697516	-0.168161	
9744.701514	-0.121024	
9744.703516	-0.029488	
9744.705516	0.018384	
9744.709515	0.063681	
9744.711516	0.158327	
9744.713515	0.203410	
9744.715517	0.250652	
9744.717515	0.297247	
9744.721515	0.344797	
9744.725514	0.432768	
9744.727517	0.531103	
9744.729516	0.578480	
9744.731516	0.628554	
9744.733515	0.677201	
9744.735514	0.725088	
9744.739514	0.777487	
9744.741515	0.873304	
9744.743515	0.923385	
9744.747515	0.969409	
9744.749516	1.066147	
9744.751516	1.112022	
9744.753515	1.157274	
9744.755514	1.202393	
9744.757515	1.238279	
9744.761515	1.276824	
9744.765516	1.349991	
9744.767515	1.417016	
9744.769515	1.446465	
9744.771516	1.478372	
9744.773515	1.503927	
9744.777514	1.528910	
9744.779516	1.562519	
9744.781515	1.577221	
9744.783515	1.586257	
9744.785516	1.591701	
9744.787516	1.597071	
9744.789516	1.595344	
9744.791515	1.591291	
9744.793515	1.584458	
9744.795515	1.572263	
9744.797515	1.556731	
9744.799516	1.538169	
9744.801514	1.515339	
9744.805516	1.490788	
9744.807516	1.436336	
9744.809515	1.408307	
9744.811517	1.377834	
9744.813516	1.342997	
9744.817514	1.309695	
9744.819515	1.236217	
9744.821515	1.204254	
9744.825515	1.164446	
9744.827517	1.088552	
9744.829515	1.046840	
9744.831515	1.008877	
9744.833515	0.969544	
9744.835516	0.929982	
9744.839516	0.892563	
9744.843516	0.816287	
9744.845515	0.745379	
9744.847516	0.711761	
9744.849516	0.678275	
9744.851515	0.644582	
9744.855514	0.614560	
9744.857514	0.554486	
9744.859516	0.525969	
9744.861515	0.498967	
9744.863515	0.472321	
9744.865515	0.448873	
9744.867516	0.424601	
9744.869516	0.404462	
9744.871515	0.387288	
9744.873516	0.365848	
9744.875515	0.344905	
9744.877516	0.325817	
9744.879515	0.304896	
9744.883515	0.288833	
9744.885515	0.256320	
9744.887514	0.243883	
9744.889515	0.228374	
9744.891516	0.214500	
9744.895514	0.203293	
9744.897515	0.176916	
9744.899515	0.165766	
9744.903517	0.154732	
9744.905516	0.138121	
9744.907515	0.129119	
9744.909515	0.120566	
9744.911515	0.112651	
9744.913516	0.103892	
9744.917516	0.095931	
9744.921515	0.082079	
9744.923516	0.072420	
9744.925515	0.068091	
9744.927516	0.063867	
9744.929515	0.056322	
9744.933515	0.053929	
9744.935516	0.042630	
9744.937515	0.040978	
9744.939516	0.036536	
9744.941516	0.034711	
9744.943516	0.033057	
9744.945515	0.028728	
9744.947515	0.026416	
9744.949515	0.024214	
9744.951515	0.021711	
9744.953515	0.018048	
9744.955515	0.016705	
9744.957514	0.014136	
9744.961516	0.012854	
9744.963515	0.009280	
9744.965515	0.009146	
9744.967515	0.007431	
9744.969516	0.005219	
9744.973514	0.006214	
9744.975515	0.001504	
9744.977515	0.001509	
9744.979515	-0.001814	
9744.981518	-0.000232	
9744.983516	-0.000217	
9744.985515	-0.001788	
9744.987517	-0.000630	
9744.989515	-0.002598	
9744.991515	-0.002730	
9744.993515	-0.003569	
9744.995514	-0.006470	
9744.999515	-0.006217	
9745.001515	-0.007526	
9745.003515	-0.005863	
9745.005515	-0.004857	
9745.007515	-0.005414	
9745.009515	-0.005930	
9745.013515	-0.005712	
9745.015515	-0.008700	
9745.017516	-0.009459	
9745.021515	-0.009744	
9745.023515	-0.007727	
9745.025515	-0.007308	
9745.027516	-0.006955	
9745.029515	-0.009675	
9745.033514	-0.007587	
9745.035515	-0.010720	
9745.039516	-0.008680	
9745.041516	-0.008775	
9745.043515	-0.007269	
9745.045515	-0.008806	
9745.047515	-0.008491	
9745.051514	-0.008206	
9745.053516	-0.010400	
9745.055515	-0.009507	
9745.057515	-0.010090	
9745.059515	-0.008389	
9745.061515	-0.007618	
9745.063515	-0.009104	
9745.065515	-0.008476	
9745.067515	-0.008738	
9745.069516	-0.008607	
9745.071516	-0.008413	
9745.073514	-0.009815	
9745.077518	-0.009555	
9745.079516	-0.010489	
9745.081515	-0.007991	
9745.083515	-0.007429	
9745.085514	-0.008540	
9745.087515	-0.006660	
9745.091515	-0.007336	
9745.093515	-0.008469	
9745.095514	-0.009278	
9745.099515	-0.008869	
9745.101515	-0.007879	
9745.103515	-0.006725	
9745.105516	-0.006001	
9745.107515	-0.006146	
9745.109515	-0.005358	
9745.113518	-0.006530	
9745.117516	-0.007224	
9745.119515	-0.006651	
9745.121517	-0.004434	
9745.123515	-0.005654	
9745.125515	-0.005237	
9745.129514	-0.003529	
9745.131515	-0.006233	
9745.133515	-0.006569	
9745.135515	-0.007629	
9745.137516	-0.003756	
9745.139516	-0.004216	
9745.141516	-0.003541	
9745.143516	-0.003124	
9745.145515	-0.004601	
9745.147514	-0.003566	
9745.149515	-0.004649	
9745.151514	-0.005655	
9745.155515	-0.005661	
9745.157515	-0.004571	
9745.159515	-0.002386	
9745.161515	-0.002131	
9745.163516	-0.003025	
9745.165515	-0.002370	
9745.167515	-0.002316	
9745.169515	-0.002903	
9745.171515	-0.002864	
9745.173515	-0.003163	
9745.175515	-0.003555	
9745.179515	-0.002209	
9745.181515	-0.001393	
9745.183515	-0.001399	
9745.185514	-0.002327	
9745.187515	-0.000068	
9745.191515	-0.001050	
9745.193515	-0.001750	
9745.195516	-0.002510	
9745.197515	-0.002685	
9745.199516	-0.001525	
9745.201516	-0.001063	
9745.203515	-0.000136	
9745.205515	0.000981	
9745.207516	0.000140	
9745.209515	0.000852	
9745.211515	-0.000411	
9745.213514	-0.002319	
9745.217516	-0.000817	
9745.219516	-0.001927	
9745.221515	0.001827	
9745.223514	0.001120	
9745.225515	0.001646	
9745.227516	0.002320	
9745.229517	0.000183	
9745.231515	0.000806	
9745.233515	0.000180	
9745.235515	-0.001402	
9745.237516	0.000823	
9745.241515	0.000077	
9745.243515	0.002822	
9745.245515	0.002270	
9745.247516	0.002117	
9745.249515	0.002510	
9745.253514	0.001860	
9745.255515	0.001849	
9745.257515	0.001255	
9745.259515	0.001785	
9745.261518	0.002879	
9745.263516	0.002116	
9745.265514	0.003814	
9745.267515	0.003241	
9745.269515	0.002609	
9745.271515	0.005313	
9745.273516	0.002448	
9745.275514	0.002871	
9745.279515	0.003226	
9745.281515	0.003222	
9745.283515	0.004836	
9745.285515	0.003733	
9745.287515	0.006382	
9745.289515	0.004910	
9745.293514	0.005705	
9745.295516	0.002858	
9745.297515	0.003798	
9745.301516	0.004077	
9745.303515	0.005925	
9745.305516	0.006962	
9745.307516	0.006563	
9745.309516	0.006739	
9745.311516	0.007389	
9745.315515	0.004851	
9745.319516	0.004052	
9745.321516	0.008126	
9745.323514	0.007241	
9745.325514	0.007523	
9745.327515	0.008642	
9745.331514	0.006555	
9745.333515	0.005868	
9745.335515	0.004979	
9745.337516	0.007159	
9745.339516	0.007282	
9745.341515	0.008236	
9745.343516	0.009387	
9745.345515	0.007716	
9745.347515	0.008384	
9745.349516	0.008704	
9745.351515	0.006579	
9745.353515	0.006540	
9745.357515	0.007539	
9745.359516	0.007993	
9745.361514	0.009225	
9745.363515	0.008169	
9745.365515	0.009177	
9745.367516	0.008223	
9745.371514	0.007983	
9745.373515	0.007139	
9745.375516	0.007769	
9745.379517	0.008640	
9745.381516	0.009439	
9745.383515	0.009393	
9745.385516	0.007993	
9745.387516	0.010133	
9745.389517	0.009462	
9745.393515	0.008096	
9745.397516	0.007504	
9745.399515	0.008575	
9745.401517	0.008658	
9745.403518	0.008248	
9745.405515	0.009681	
9745.409514	0.009017	
9745.411516	0.006965	
9745.413515	0.005818	
9745.415516	0.006510	
9745.417515	0.006216	
9745.419515	0.006375	
9745.421515	0.008943	
9745.423515	0.006657	
9745.425515	0.007476	
9745.427515	0.008264	
9745.429516	0.003857	
9745.431515	0.004428	
9745.433514	0.003593	
9745.437516	0.002040	
9745.439516	0.003947	
9745.441515	0.003620	
9745.443515	0.003975	
9745.445515	0.002072	
9745.449514	0.001613	
9745.451516	-0.002369	
9745.453515	-0.002927	
9745.457515	-0.002944	
9745.459516	-0.003389	
9745.461515	-0.004092	
9745.463516	-0.007408	
9745.465515	-0.007861	
9745.467516	-0.009945	
9745.471515	-0.013155	
9745.475515	-0.017236	
9745.477515	-0.017364	
9745.479515	-0.022259	
9745.481515	-0.023156	
9745.483515	-0.026096	
9745.487514	-0.029327	
9745.489517	-0.036288	
9745.491515	-0.038908	
9745.493515	-0.041348	
9745.495515	-0.045536	
9745.497515	-0.048659	
9745.499515	-0.052071	
9745.501516	-0.057491	
9745.503515	-0.061391	
9745.505516	-0.065311	
9745.507516	-0.072610	
9745.509515	-0.077876	
9745.513516	-0.083536	
9745.515517	-0.096938	
9745.517516	-0.103583	
9745.519515	-0.110874	
9745.521515	-0.116444	
9745.523515	-0.126739	
9745.527514	-0.134318	
9745.529516	-0.157004	
9745.531515	-0.165808	
9745.535515	-0.176683	
9745.537515	-0.197311	
9745.539518	-0.210528	
9745.541515	-0.223483	
9745.543515	-0.236366	
9745.545515	-0.252182	
9745.549515	-0.268903	
9745.553515	-0.303494	
9745.555516	-0.336635	
9745.557515	-0.356546	
9745.559515	-0.376882	
9745.561515	-0.398087	
9745.565514	-0.419031	
9745.567515	-0.463773	
9745.569515	-0.490387	
9745.571516	-0.514783	
9745.573516	-0.542380	
9745.575516	-0.569464	
9745.577516	-0.598005	
9745.579515	-0.630855	
9745.581515	-0.660761	
9745.583515	-0.692885	
9745.585516	-0.729163	
9745.587515	-0.761768	
9745.591516	-0.798092	
9745.593515	-0.869358	
9745.595515	-0.906246	
9745.597516	-0.944640	
9745.599514	-0.982651	
9745.601515	-1.021323	
9745.603515	-1.058897	
9745.605515	-1.096475	
9745.607515	-1.136748	
9745.609515	-1.175060	
9745.613515	-1.212068	
9745.615516	-1.277546	
9745.617516	-1.312502	
9745.619515	-1.347419	
9745.621515	-1.377757	
9745.623515	-1.409952	
9745.625515	-1.438129	
9745.627515	-1.463500	
9745.629516	-1.491372	
9745.633515	-1.511691	
9745.635516	-1.545838	
9745.637515	-1.554862	
9745.639515	-1.564764	
9745.641515	-1.569995	
9745.643515	-1.571389	
9745.645516	-1.570649	
9745.647516	-1.566321	
9745.649522	-1.558771	
9745.653514	-1.547333	
9745.655515	-1.512588	
9745.657515	-1.489710	
9745.659517	-1.464336	
9745.661515	-1.436719	
9745.663516	-1.408388	
9745.665515	-1.374202	
9745.667516	-1.339156	
9745.669514	-1.303320	
9745.673515	-1.263434	
9745.675515	-1.188687	
9745.677516	-1.143723	
9745.679515	-1.100802	
9745.681516	-1.054204	
9745.683515	-1.009183	
9745.685516	-0.963543	
9745.687515	-0.913718	
9745.691515	-0.868074	
9745.695515	-0.770209	
9745.697515	-0.672615	
9745.699515	-0.623834	
